# Tabulated spectral data for IOPs
# aw from (Buiteveld et al, 1994),
# A and B from (Bricaud et al, 1995)
# Wavelength (nm), aw (/m), A, B
400,0.0058,0.0263,0.282
402,0.0059,0.0271,0.281
404,0.0061,0.0280,0.282
406,0.0063,0.0290,0.281
408,0.0065,0.0301,0.282
410,0.0067,0.0313,0.283
412,0.0069,0.0323,0.286
414,0.0072,0.0333,0.291
416,0.0074,0.0342,0.293
418,0.0076,0.0349,0.296
420,0.0079,0.0356,0.299
422,0.0082,0.0359,0.306
424,0.0084,0.0362,0.313
426,0.0087,0.0369,0.316
428,0.0089,0.0376,0.317
430,0.0092,0.0386,0.314
432,0.0094,0.0391,0.318
434,0.0097,0.0395,0.324
436,0.0099,0.0399,0.328
438,0.0102,0.0401,0.332
440,0.0104,0.0403,0.332
442,0.0106,0.0398,0.339
444,0.0108,0.0390,0.348
446,0.0110,0.0383,0.355
448,0.0112,0.0375,0.360
450,0.0114,0.0371,0.359
452,0.0116,0.0365,0.362
454,0.0118,0.0358,0.366
456,0.0120,0.0354,0.367
458,0.0122,0.0351,0.368
460,0.0124,0.0350,0.365
462,0.0126,0.0347,0.366
464,0.0128,0.0343,0.368
466,0.0130,0.0339,0.369
468,0.0133,0.0335,0.369
470,0.0135,0.0332,0.368
472,0.0138,0.0325,0.371
474,0.0141,0.0318,0.375
476,0.0144,0.0312,0.378
478,0.0148,0.0306,0.379
480,0.0152,0.0301,0.377
482,0.0157,0.0296,0.377
484,0.0162,0.0290,0.376
486,0.0167,0.0285,0.373
488,0.0174,0.0279,0.369
490,0.0181,0.0274,0.361
492,0.0189,0.0267,0.356
494,0.0198,0.0258,0.349
496,0.0209,0.0249,0.341
498,0.0223,0.0240,0.332
500,0.0238,0.0230,0.321
502,0.0255,0.0220,0.311
504,0.0273,0.0209,0.300
506,0.0291,0.0199,0.288
508,0.0310,0.0189,0.275
510,0.0329,0.0180,0.260
512,0.0349,0.0171,0.249
514,0.0368,0.0163,0.237
516,0.0386,0.0156,0.224
518,0.0404,0.0149,0.211
520,0.0409,0.0143,0.196
522,0.0416,0.0137,0.184
524,0.0409,0.0131,0.173
526,0.0427,0.0126,0.162
528,0.0423,0.0121,0.151
530,0.0429,0.0117,0.139
532,0.0445,0.0113,0.129
534,0.0456,0.0108,0.119
536,0.0470,0.0104,0.109
538,0.0480,0.0100,0.100
540,0.0495,0.0097,0.090
542,0.0503,0.0093,0.081
544,0.0527,0.0090,0.073
546,0.0544,0.0086,0.066
548,0.0564,0.0083,0.059
550,0.0588,0.0080,0.052
552,0.0611,0.0076,0.044
554,0.0631,0.0072,0.036
556,0.0646,0.0068,0.027
558,0.0658,0.0065,0.016
560,0.0672,0.0062,0.016
562,0.0686,0.0059,0.013
564,0.0699,0.0057,0.010
566,0.0718,0.0055,0.007
568,0.0734,0.0054,0.007
570,0.0759,0.0053,0.005
572,0.0787,0.0053,0.011
574,0.0819,0.0052,0.018
576,0.0858,0.0052,0.022
578,0.0896,0.0052,0.028
580,0.0952,0.0053,0.035
582,0.1000,0.0054,0.040
584,0.1079,0.0055,0.050
586,0.1159,0.0055,0.056
588,0.1253,0.0056,0.065
590,0.1356,0.0056,0.073
592,0.1459,0.0057,0.081
594,0.1567,0.0056,0.088
596,0.1700,0.0056,0.093
598,0.1860,0.0055,0.095
600,0.2224,0.0054,0.092
602,0.2366,0.0054,0.088
604,0.2448,0.0055,0.086
606,0.2587,0.0055,0.082
608,0.2653,0.0056,0.076
610,0.2691,0.0057,0.071
612,0.2715,0.0059,0.069
614,0.2740,0.0060,0.066
616,0.2764,0.0062,0.063
618,0.2785,0.0063,0.064
620,0.2810,0.0065,0.064
622,0.2839,0.0066,0.068
624,0.2868,0.0067,0.071
626,0.2893,0.0068,0.074
628,0.2922,0.0069,0.076
630,0.2955,0.0071,0.078
632,0.2988,0.0073,0.080
634,0.3011,0.0074,0.084
636,0.3038,0.0075,0.088
638,0.3076,0.0076,0.093
640,0.3111,0.0077,0.098
642,0.3144,0.0078,0.105
644,0.3181,0.0079,0.113
646,0.3223,0.0080,0.119
648,0.3263,0.0081,0.123
650,0.3315,0.0083,0.124
652,0.3362,0.0085,0.125
654,0.3423,0.0089,0.124
656,0.3508,0.0095,0.122
658,0.3636,0.0104,0.120
660,0.3791,0.0115,0.121
662,0.3931,0.0129,0.125
664,0.4019,0.0144,0.131
666,0.4072,0.0161,0.137
668,0.4098,0.0176,0.143
670,0.4122,0.0189,0.149
672,0.4150,0.0197,0.153
674,0.4173,0.0201,0.157
676,0.4223,0.0200,0.159
678,0.4270,0.0193,0.158
680,0.4318,0.0182,0.155
682,0.4381,0.0166,0.148
684,0.4458,0.0145,0.138
686,0.4545,0.0124,0.124
688,0.4646,0.0102,0.107
690,0.4760,0.0083,0.086
692,0.4903,0.0067,0.065
694,0.5071,0.0054,0.042
696,0.5244,0.0044,0.015
698,0.5470,0.0036,-0.016
700,0.5722,0.0030,-0.034
702,0.5995,0.0030,-0.034
704,0.6303,0.0030,-0.034
706,0.6628,0.0030,-0.034
708,0.6993,0.0030,-0.034
710,0.7415,0.0030,-0.034
712,0.7893,0.0030,-0.034
714,0.8445,0.0030,-0.034
716,0.9109,0.0030,-0.034
718,0.9871,0.0030,-0.034
720,1.0724,0.0030,-0.034
722,1.1679,0.0030,-0.034
724,1.2684,0.0030,-0.034
726,1.3719,0.0030,-0.034
728,1.4870,0.0030,-0.034
730,1.6211,0.0030,-0.034
732,1.7872,0.0030,-0.034
734,1.9917,0.0030,-0.034
736,2.2074,0.0030,-0.034
738,2.3942,0.0030,-0.034
740,2.5319,0.0030,-0.034
742,2.6231,0.0030,-0.034
744,2.6723,0.0030,-0.034
746,2.7021,0.0030,-0.034
748,2.7216,0.0030,-0.034
750,2.7334,0.0030,-0.034
752,2.7413,0.0030,-0.034
754,2.7478,0.0030,-0.034
756,2.7542,0.0030,-0.034
758,2.7628,0.0030,-0.034
760,2.7710,0.0030,-0.034
762,2.7733,0.0030,-0.034
764,2.7742,0.0030,-0.034
766,2.7701,0.0030,-0.034
768,2.7610,0.0030,-0.034
770,2.7542,0.0030,-0.034
772,2.7482,0.0030,-0.034
774,2.7305,0.0030,-0.034
776,2.7097,0.0030,-0.034
778,2.6896,0.0030,-0.034
780,2.6590,0.0030,-0.034
782,2.6332,0.0030,-0.034
784,2.6062,0.0030,-0.034
786,2.5702,0.0030,-0.034
788,2.5335,0.0030,-0.034
790,2.4924,0.0030,-0.034
792,2.4481,0.0030,-0.034
794,2.4083,0.0030,-0.034
796,2.3742,0.0030,-0.034
798,2.3332,0.0030,-0.034
800,2.2932,0.0030,-0.034
802,2.2282,0.0030,-0.034
804,2.2101,0.0030,-0.034
806,2.1984,0.0030,-0.034
808,2.1929,0.0030,-0.034
810,2.1875,0.0030,-0.034
812,2.2017,0.0030,-0.034
814,2.2159,0.0030,-0.034
816,2.2443,0.0030,-0.034
818,2.2868,0.0030,-0.034
820,2.3294,0.0030,-0.034
822,2.4456,0.0030,-0.034
824,2.5618,0.0030,-0.034
826,2.7174,0.0030,-0.034
828,2.9125,0.0030,-0.034
830,3.1075,0.0030,-0.034
832,3.3454,0.0030,-0.034
834,3.5833,0.0030,-0.034
836,3.7516,0.0030,-0.034
838,3.8505,0.0030,-0.034
840,3.9494,0.0030,-0.034
842,3.9996,0.0030,-0.034
844,4.0497,0.0030,-0.034
846,4.0996,0.0030,-0.034
848,4.1491,0.0030,-0.034
850,4.1986,0.0030,-0.034
852,4.2417,0.0030,-0.034
854,4.2848,0.0030,-0.034
856,4.3316,0.0030,-0.034
858,4.3821,0.0030,-0.034
860,4.4326,0.0030,-0.034
862,4.5016,0.0030,-0.034
864,4.5707,0.0030,-0.034
866,4.6346,0.0030,-0.034
868,4.6933,0.0030,-0.034
870,4.7521,0.0030,-0.034
872,4.8354,0.0030,-0.034
874,4.9187,0.0030,-0.034
876,5.0279,0.0030,-0.034
878,5.1629,0.0030,-0.034
880,5.2979,0.0030,-0.034
882,5.4052,0.0030,-0.034
884,5.5125,0.0030,-0.034
886,5.6192,0.0030,-0.034
888,5.7253,0.0030,-0.034
890,5.8314,0.0030,-0.034
892,5.9363,0.0030,-0.034
894,6.0412,0.0030,-0.034
896,6.1469,0.0030,-0.034
898,6.2535,0.0030,-0.034
900,6.3601,0.0030,-0.034